                  #Energy              Total trace      Spin Up (spin axis)      Spin Dn (spin axis)         <Sx> (spin axis)         <Sy> (spin axis)         <Sz> (spin axis)
       -1.000000000000000        0.011997123537919        0.003670746350241        0.008326377187677        0.000000000000000        0.000000000000000        0.002327815418718
       -0.998000000000000        0.012108109210077        0.003697289737258        0.008410819472819        0.000000000000000        0.000000000000000        0.002356764867780
       -0.996000000000000        0.012220795051573        0.003724153824315        0.008496641227258        0.000000000000000        0.000000000000000        0.002386243701471
       -0.994000000000000        0.012335217454990        0.003751344096202        0.008583873358788        0.000000000000000        0.000000000000000        0.002416264631293
       -0.992000000000000        0.012451413855629        0.003778866173103        0.008672547682525        0.000000000000000        0.000000000000000        0.002446840754711
       -0.990000000000000        0.012569422754507        0.003806725802064        0.008762696952443        0.000000000000000        0.000000000000000        0.002477985575189
       -0.988000000000000        0.012689283766355        0.003834928870175        0.008854354896179        0.000000000000000        0.000000000000000        0.002509713013002
       -0.986000000000000        0.012811037662892        0.003863481405767        0.008947556257124        0.000000000000000        0.000000000000000        0.002542037425678
       -0.984000000000000        0.012934726406045        0.003892389585941        0.009042336820105        0.000000000000000        0.000000000000000        0.002574973617082
       -0.982000000000000        0.013060393187941        0.003921659733750        0.009138733454191        0.000000000000000        0.000000000000000        0.002608536860220
       -0.980000000000000        0.013188082486184        0.003951298328191        0.009236784157993        0.000000000000000        0.000000000000000        0.002642742914901
       -0.978000000000000        0.013317840110100        0.003981312013460        0.009336528096640        0.000000000000000        0.000000000000000        0.002677608041590
       -0.976000000000000        0.013449713240058        0.004011707594996        0.009438005645062        0.000000000000000        0.000000000000000        0.002713149025033
       -0.974000000000000        0.013583750485723        0.004042492045165        0.009541258440558        0.000000000000000        0.000000000000000        0.002749383197697
       -0.972000000000000        0.013720001941904        0.004073672520285        0.009646329421619        0.000000000000000        0.000000000000000        0.002786328450667
       -0.970000000000000        0.013858519235141        0.004105256353707        0.009753262881434        0.000000000000000        0.000000000000000        0.002824003263864
       -0.968000000000000        0.013999355593793        0.004137251062481        0.009862104531312        0.000000000000000        0.000000000000000        0.002862426734416
       -0.966000000000000        0.014142565904436        0.004169664365927        0.009972901538510        0.000000000000000        0.000000000000000        0.002901618586292
       -0.964000000000000        0.014288206770966        0.004202504176660        0.010085702594306        0.000000000000000        0.000000000000000        0.002941599208823
       -0.962000000000000        0.014436336586530        0.004235778615086        0.010200557971444        0.000000000000000        0.000000000000000        0.002982389678179
       -0.960000000000000        0.014587015609098        0.004269496020154        0.010317519588944        0.000000000000000        0.000000000000000        0.003024011784395
       -0.958000000000000        0.014740306021508        0.004303664943508        0.010436641078000        0.000000000000000        0.000000000000000        0.003066488067246
       -0.956000000000000        0.014896272027418        0.004338294176924        0.010557977850493        0.000000000000000        0.000000000000000        0.003109841836785
       -0.954000000000000        0.015054979905876        0.004373392738435        0.010681587167440        0.000000000000000        0.000000000000000        0.003154097214503
       -0.952000000000000        0.015216498116337        0.004408969890933        0.010807528225403        0.000000000000000        0.000000000000000        0.003199279167235
       -0.950000000000000        0.015380897395119        0.004445035160164        0.010935862234956        0.000000000000000        0.000000000000000        0.003245413537396
       -0.948000000000000        0.015548250818184        0.004481598327402        0.011066652490782        0.000000000000000        0.000000000000000        0.003292527081690
       -0.946000000000000        0.015718633930531        0.004518669447307        0.011199964483224        0.000000000000000        0.000000000000000        0.003340647517959
       -0.944000000000000        0.015892124825765        0.004556258856339        0.011335865969427        0.000000000000000        0.000000000000000        0.003389803556544
       -0.942000000000000        0.016068804265364        0.004594377182014        0.011474427083350        0.000000000000000        0.000000000000000        0.003440024950668
       -0.940000000000000        0.016248755792220        0.004633035357233        0.011615720434987        0.000000000000000        0.000000000000000        0.003491342538877
       -0.938000000000000        0.016432065851331        0.004672244629889        0.011759821221442        0.000000000000000        0.000000000000000        0.003543788295777
       -0.936000000000000        0.016618823900111        0.004712016568761        0.011906807331351        0.000000000000000        0.000000000000000        0.003597395381295
       -0.934000000000000        0.016809122564556        0.004752363087034        0.012056759477522        0.000000000000000        0.000000000000000        0.003652198195244
       -0.932000000000000        0.017003057759984        0.004793296447827        0.012209761312157        0.000000000000000        0.000000000000000        0.003708232432165
       -0.930000000000000        0.017200728840258        0.004834829275569        0.012365899564688        0.000000000000000        0.000000000000000        0.003765535144560
       -0.928000000000000        0.017402238756269        0.004876974580242        0.012525264176027        0.000000000000000        0.000000000000000        0.003824144797892
       -0.926000000000000        0.017607694223137        0.004919745764417        0.012687948458720        0.000000000000000        0.000000000000000        0.003884101347152
       -0.924000000000000        0.017817205872217        0.004963156639421        0.012854049232796        0.000000000000000        0.000000000000000        0.003945446296687
       -0.922000000000000        0.018030888454873        0.005007221441311        0.013023667013562        0.000000000000000        0.000000000000000        0.004008222786126
       -0.920000000000000        0.018248861019730        0.005051954860873        0.013196906158857        0.000000000000000        0.000000000000000        0.004072475648992
       -0.918000000000000        0.018471247111778        0.005097372037965        0.013373875073813        0.000000000000000        0.000000000000000        0.004138251517924
       -0.916000000000000        0.018698174997125        0.005143488601896        0.013554686395229        0.000000000000000        0.000000000000000        0.004205598896666
       -0.914000000000000        0.018929777876559        0.005190320688144        0.013739457188415        0.000000000000000        0.000000000000000        0.004274568250136
       -0.912000000000000        0.019166194127987        0.005237884949064        0.013928309178923        0.000000000000000        0.000000000000000        0.004345212114930
       -0.910000000000000        0.019407567556298        0.005286198582934        0.014121368973364        0.000000000000000        0.000000000000000        0.004417585195215
       -0.908000000000000        0.019654047663146        0.005335279365415        0.014318768297731        0.000000000000000        0.000000000000000        0.004491744466158
       -0.906000000000000        0.019905789924098        0.005385145661751        0.014520644262347        0.000000000000000        0.000000000000000        0.004567749300298
       -0.904000000000000        0.020162956089474        0.005435816462868        0.014727139626605        0.000000000000000        0.000000000000000        0.004645661581869
       -0.902000000000000        0.020425714499503        0.005487311403981        0.014938403095522        0.000000000000000        0.000000000000000        0.004725545845771
       -0.900000000000000        0.020694240428804        0.005539650809582        0.015154589619222        0.000000000000000        0.000000000000000        0.004807469404820
       -0.898000000000000        0.020968716430292        0.005592855708386        0.015375860721906        0.000000000000000        0.000000000000000        0.004891502506760
       -0.896000000000000        0.021249332712187        0.005646947870423        0.015602384841763        0.000000000000000        0.000000000000000        0.004977718485670
       -0.894000000000000        0.021536287562118        0.005701949854578        0.015834337707540        0.000000000000000        0.000000000000000        0.005066193926481
       -0.892000000000000        0.021829787753358        0.005757885032814        0.016071902720545        0.000000000000000        0.000000000000000        0.005157008843865
       -0.890000000000000        0.022130049007918        0.005814777631470        0.016315271376448        0.000000000000000        0.000000000000000        0.005250246872489
       -0.888000000000000        0.022437296486101        0.005872652778719        0.016564643707382        0.000000000000000        0.000000000000000        0.005345995464331
       -0.886000000000000        0.022751765287178        0.005931536544087        0.016820228743091        0.000000000000000        0.000000000000000        0.005444346099502
       -0.884000000000000        0.023073701026829        0.005991455994173        0.017082245032656        0.000000000000000        0.000000000000000        0.005545394519241
       -0.882000000000000        0.023403360391011        0.006052439228628        0.017350921162383        0.000000000000000        0.000000000000000        0.005649240966878
       -0.880000000000000        0.023741011792589        0.006114515451229        0.017626496341359        0.000000000000000        0.000000000000000        0.005755990445065
       -0.878000000000000        0.024086936022606        0.006177715012284        0.017909221010323        0.000000000000000        0.000000000000000        0.005865752999020
       -0.876000000000000        0.024441426979018        0.006242069484461        0.018199357494557        0.000000000000000        0.000000000000000        0.005978644005048
       -0.874000000000000        0.024804792412736        0.006307611712090        0.018497180700646        0.000000000000000        0.000000000000000        0.006094784494278
       -0.872000000000000        0.025177354776693        0.006374375899231        0.018802978877462        0.000000000000000        0.000000000000000        0.006214301489116
       -0.870000000000000        0.025559452075542        0.006442397666562        0.019117054408980        0.000000000000000        0.000000000000000        0.006337328371209
       -0.868000000000000        0.025951438824766        0.006511714149560        0.019439724675205        0.000000000000000        0.000000000000000        0.006464005262822
       -0.866000000000000        0.026353687053006        0.006582364070187        0.019771322982820        0.000000000000000        0.000000000000000        0.006594479456317
       -0.864000000000000        0.026766587398305        0.006654387833067        0.020112199565239        0.000000000000000        0.000000000000000        0.006728905866086
       -0.862000000000000        0.027190550254976        0.006727827629586        0.020462722625389        0.000000000000000        0.000000000000000        0.006867447497901
       -0.860000000000000        0.027626007046546        0.006802727543660        0.020823279502886        0.000000000000000        0.000000000000000        0.007010275979613
       -0.858000000000000        0.028073411564150        0.006879133657348        0.021194277906802        0.000000000000000        0.000000000000000        0.007157572124727
       -0.856000000000000        0.028533241435660        0.006957094183593        0.021576147252067        0.000000000000000        0.000000000000000        0.007309526534237
       -0.854000000000000        0.029005999685361        0.007036659601147        0.021969340084214        0.000000000000000        0.000000000000000        0.007466340241534
       -0.852000000000000        0.029492216424304        0.007117882790960        0.022374333633343        0.000000000000000        0.000000000000000        0.007628225421191
       -0.850000000000000        0.029992450694239        0.007200819192365        0.022791631501874        0.000000000000000        0.000000000000000        0.007795406154755
       -0.848000000000000        0.030507292454810        0.007285526989166        0.023221765465644        0.000000000000000        0.000000000000000        0.007968119238239
       -0.846000000000000        0.031037364698261        0.007372067258418        0.023665297439843        0.000000000000000        0.000000000000000        0.008146615090712
       -0.844000000000000        0.031583325812765        0.007460504204902        0.024122821607863        0.000000000000000        0.000000000000000        0.008331158701481
       -0.842000000000000        0.032145872088560        0.007550905354299        0.024594966734261        0.000000000000000        0.000000000000000        0.008522030689981
       -0.840000000000000        0.032725740455535        0.007643341794065        0.025082398661471        0.000000000000000        0.000000000000000        0.008719528433703
       -0.838000000000000        0.033323711473957        0.007737888430426        0.025585823043531        0.000000000000000        0.000000000000000        0.008923967306553
       -0.836000000000000        0.033940612577865        0.007834624266165        0.026105988311700        0.000000000000000        0.000000000000000        0.009135682022767
       -0.834000000000000        0.034577321628884        0.007933632711628        0.026643688917256        0.000000000000000        0.000000000000000        0.009355028102814
       -0.832000000000000        0.035234770750914        0.008035001907504        0.027199768843409        0.000000000000000        0.000000000000000        0.009582383467952
       -0.830000000000000        0.035913950579634        0.008138825094627        0.027775125485007        0.000000000000000        0.000000000000000        0.009818150195190
       -0.828000000000000        0.036615914882058        0.008245201033621        0.028370713848436        0.000000000000000        0.000000000000000        0.010062756407407
       -0.826000000000000        0.037341785605553        0.008354234422529        0.028987551183024        0.000000000000000        0.000000000000000        0.010316658380247
       -0.824000000000000        0.038092758456250        0.008466036404167        0.029626722052083        0.000000000000000        0.000000000000000        0.010580342823958
       -0.822000000000000        0.038870108980157        0.008580725092675        0.030289383887482        0.000000000000000        0.000000000000000        0.010854329397404
       -0.820000000000000        0.039675199323013        0.008698426184915        0.030976773138098        0.000000000000000        0.000000000000000        0.011139173476592
       -0.818000000000000        0.040509485609580        0.008819273611865        0.031690211997715        0.000000000000000        0.000000000000000        0.011435469192925
       -0.816000000000000        0.041374526141388        0.008943410274981        0.032431115866406        0.000000000000000        0.000000000000000        0.011743852795713
       -0.814000000000000        0.042271990451355        0.009070988879670        0.033201001571685        0.000000000000000        0.000000000000000        0.012065006346008
       -0.812000000000000        0.043203669322670        0.009202172833400        0.034001496489270        0.000000000000000        0.000000000000000        0.012399661827935
       -0.810000000000000        0.044171485910384        0.009337137271487        0.034834348638897        0.000000000000000        0.000000000000000        0.012748605683705
       -0.808000000000000        0.045177508142749        0.009476070225749        0.035701437916999        0.000000000000000        0.000000000000000        0.013112683845625
       -0.806000000000000        0.046223962479048        0.009619173883016        0.036604788596033        0.000000000000000        0.000000000000000        0.013492807356508
       -0.804000000000000        0.047313249322121        0.009766666074532        0.037546583247589        0.000000000000000        0.000000000000000        0.013889958586528
       -0.802000000000000        0.048447960229930        0.009918781900194        0.038529178329736        0.000000000000000        0.000000000000000        0.014305198214771
       -0.800000000000000        0.049630897219588        0.010075775605971        0.039555121613617        0.000000000000000        0.000000000000000        0.014739673003823
       -0.798000000000000        0.050865094467880        0.010237922698982        0.040627171768898        0.000000000000000        0.000000000000000        0.015194624534958
       -0.796000000000000        0.052153842758931        0.010405522383229        0.041748320375702        0.000000000000000        0.000000000000000        0.015671398996236
       -0.794000000000000        0.053500717067555        0.010578900325192        0.042921816742363        0.000000000000000        0.000000000000000        0.016171458208586
       -0.792000000000000        0.054909607829970        0.010758411847087        0.044151195982884        0.000000000000000        0.000000000000000        0.016696392067899
       -0.790000000000000        0.056384756450044        0.010944445616260        0.045440310833784        0.000000000000000        0.000000000000000        0.017247932608762
       -0.788000000000000        0.057930795691127        0.011137427886497        0.046793367804631        0.000000000000000        0.000000000000000        0.017827969959067
       -0.786000000000000        0.059552795869424        0.011337827479058        0.048214968390366        0.000000000000000        0.000000000000000        0.018438570455654
       -0.784000000000000        0.061256317786343        0.011546161564633        0.049710156221710        0.000000000000000        0.000000000000000        0.019081997328539
       -0.782000000000000        0.063047473602201        0.011763002465989        0.051284471136212        0.000000000000000        0.000000000000000        0.019760734335111
       -0.780000000000000        0.064932997117976        0.011988985700839        0.052944011417137        0.000000000000000        0.000000000000000        0.020477512858149
       -0.778000000000000        0.066920325256087        0.012224819494192        0.054695505761894        0.000000000000000        0.000000000000000        0.021235343133851
