                  #Energy              Total trace      Spin Up (spin axis)      Spin Dn (spin axis)         <Sx> (spin axis)         <Sy> (spin axis)         <Sz> (spin axis)
       -1.000000000000000        0.092878516290033        0.021272428233481        0.071606088056552        0.000000000000000        0.000000000000000        0.025166829911535
       -0.998000000000000        0.094094243164263        0.021426340330633        0.072667902833630        0.000000000000000        0.000000000000000        0.025620781251498
       -0.996000000000000        0.095334824050140        0.021582318943131        0.073752505107009        0.000000000000000        0.000000000000000        0.026085093081939
       -0.994000000000000        0.096600892400271        0.021740401592750        0.074860490807521        0.000000000000000        0.000000000000000        0.026560044607385
       -0.992000000000000        0.097893100757522        0.021900626623847        0.075992474133676        0.000000000000000        0.000000000000000        0.027045923754914
       -0.990000000000000        0.099212121413140        0.022063033221872        0.077149088191268        0.000000000000000        0.000000000000000        0.027543027484698
       -0.988000000000000        0.100558647094103        0.022227661436187        0.078330985657916        0.000000000000000        0.000000000000000        0.028051662110864
       -0.986000000000000        0.101933391676315        0.022394552199607        0.079538839476708        0.000000000000000        0.000000000000000        0.028572143638551
       -0.984000000000000        0.103337090927641        0.022563747350883        0.080773343576759        0.000000000000000        0.000000000000000        0.029104798112938
       -0.982000000000000        0.104770503274664        0.022735289656117        0.082035213618547        0.000000000000000        0.000000000000000        0.029649961981215
       -0.980000000000000        0.106234410607793        0.022909222833506        0.083325187774286        0.000000000000000        0.000000000000000        0.030207982470390
       -0.978000000000000        0.107729619111458        0.023085591574751        0.084644027536707        0.000000000000000        0.000000000000000        0.030779217980978
       -0.976000000000000        0.109256960131495        0.023264441570701        0.085992518560794        0.000000000000000        0.000000000000000        0.031364038495047
       -0.974000000000000        0.110817291074739        0.023445819535228        0.087371471539511        0.000000000000000        0.000000000000000        0.031962826002142
       -0.972000000000000        0.112411496347917        0.023629773231386        0.088781723116531        0.000000000000000        0.000000000000000        0.032575974942572
       -0.970000000000000        0.114040488329324        0.023816351496771        0.090224136832553        0.000000000000000        0.000000000000000        0.033203892667891
       -0.968000000000000        0.115705208386606        0.024005604271444        0.091699604115162        0.000000000000000        0.000000000000000        0.033846999921859
       -0.966000000000000        0.117406627928587        0.024197582624220        0.093209045304367        0.000000000000000        0.000000000000000        0.034505731340074
       -0.964000000000000        0.119145749507141        0.024392338782168        0.094753410724973        0.000000000000000        0.000000000000000        0.035180535971402
       -0.962000000000000        0.120923607957848        0.024589926158744        0.096333681799105        0.000000000000000        0.000000000000000        0.035871877820180
       -0.960000000000000        0.122741271591780        0.024790399384219        0.097950872207561        0.000000000000000        0.000000000000000        0.036580236411671
       -0.958000000000000        0.124599843435382        0.024993814336285        0.099606029099097        0.000000000000000        0.000000000000000        0.037306107381406
       -0.956000000000000        0.126500462520424        0.025200228171523        0.101300234348902        0.000000000000000        0.000000000000000        0.038050003088690
       -0.954000000000000        0.128444305228690        0.025409699357238        0.103034605871452        0.000000000000000        0.000000000000000        0.038812453257107
       -0.952000000000000        0.130432586693246        0.025622287705966        0.104810298987280        0.000000000000000        0.000000000000000        0.039594005640657
       -0.950000000000000        0.132466562257228        0.025838054408174        0.106628507849054        0.000000000000000        0.000000000000000        0.040395226720440
       -0.948000000000000        0.134547528994725        0.026057062068810        0.108490466925915        0.000000000000000        0.000000000000000        0.041216702428553
       -0.946000000000000        0.136676827293601        0.026279374741727        0.110397452551874        0.000000000000000        0.000000000000000        0.042059038905073
       -0.944000000000000        0.138855842510086        0.026505057968384        0.112350784541702        0.000000000000000        0.000000000000000        0.042922863286659
       -0.942000000000000        0.141086006688768        0.026734178814760        0.114351827874008        0.000000000000000        0.000000000000000        0.043808824529624
       -0.940000000000000        0.143368800357743        0.026966805910686        0.116401994447057        0.000000000000000        0.000000000000000        0.044717594268185
       -0.938000000000000        0.145705754399842        0.027203009490670        0.118502744909172        0.000000000000000        0.000000000000000        0.045649867709251
       -0.936000000000000        0.148098452004728        0.027442861433583        0.120655590571145        0.000000000000000        0.000000000000000        0.046606364568781
       -0.934000000000000        0.150548530706311        0.027686435306775        0.122862095399536        0.000000000000000        0.000000000000000        0.047587830046380
       -0.932000000000000        0.153057684504260        0.027933806408562        0.125123878095698        0.000000000000000        0.000000000000000        0.048595035843568
       -0.930000000000000        0.155627666078975        0.028185051813067        0.127442614265907        0.000000000000000        0.000000000000000        0.049628781226420
       -0.928000000000000        0.158260289104809        0.028440250415849        0.129820038688960        0.000000000000000        0.000000000000000        0.050689894136555
       -0.926000000000000        0.160957430662132        0.028699482982213        0.132257947679919        0.000000000000000        0.000000000000000        0.051779232348853
       -0.924000000000000        0.163721033751651        0.028962832192897        0.134758201558754        0.000000000000000        0.000000000000000        0.052897684682928
       -0.922000000000000        0.166553109924802        0.029230382697020        0.137322727227782        0.000000000000000        0.000000000000000        0.054046172265381
       -0.920000000000000        0.169455742023703        0.029502221160901        0.139953520862802        0.000000000000000        0.000000000000000        0.055225649850950
       -0.918000000000000        0.172431087045408        0.029778436320729        0.142652650724679        0.000000000000000        0.000000000000000        0.056437107201975
       -0.916000000000000        0.175481379130668        0.030059119037148        0.145422260093520        0.000000000000000        0.000000000000000        0.057681570528186
       -0.914000000000000        0.178608932683842        0.030344362349182        0.148264570334660        0.000000000000000        0.000000000000000        0.058960103992739
       -0.912000000000000        0.181816145632669        0.030634261532521        0.151181884100148        0.000000000000000        0.000000000000000        0.060273811283814
       -0.910000000000000        0.185105502832120        0.030928914156261        0.154176588675859        0.000000000000000        0.000000000000000        0.061623837259799
       -0.908000000000000        0.188479579616415        0.031228420144155        0.157251159472260        0.000000000000000        0.000000000000000        0.063011369664053
       -0.906000000000000        0.191941045514697        0.031532881834949        0.160408163679748        0.000000000000000        0.000000000000000        0.064437640922400
       -0.904000000000000        0.195492668126542        0.031842404045972        0.163650264080570        0.000000000000000        0.000000000000000        0.065903930017299
       -0.902000000000000        0.199137317173453        0.032157094138343        0.166980223035110        0.000000000000000        0.000000000000000        0.067411564448384
       -0.900000000000000        0.202877968729906        0.032477062083609        0.170400906646297        0.000000000000000        0.000000000000000        0.068961922281344
       -0.898000000000000        0.206717709644983        0.032802420532418        0.173915289112565        0.000000000000000        0.000000000000000        0.070556434290074
       -0.896000000000000        0.210659742157935        0.033133284884232        0.177526457273703        0.000000000000000        0.000000000000000        0.072196586194736
       -0.894000000000000        0.214707388724740        0.033469773361160        0.181237615363581        0.000000000000000        0.000000000000000        0.073883921001211
       -0.892000000000000        0.218864097055833        0.033812007080880        0.185052089974954        0.000000000000000        0.000000000000000        0.075620041447037
       -0.890000000000000        0.223133445382626        0.034160110134836        0.188973335247790        0.000000000000000        0.000000000000000        0.077406612556477
       -0.888000000000000        0.227519147954818        0.034514209665597        0.193004938289221        0.000000000000000        0.000000000000000        0.079245364311812
       -0.886000000000000        0.232025060787891        0.034874435947682        0.197150624840209        0.000000000000000        0.000000000000000        0.081138094446264
       -0.884000000000000        0.236655187661239        0.035240922471904        0.201414265189334        0.000000000000000        0.000000000000000        0.083086671358715
       -0.882000000000000        0.241413686386215        0.035613806029486        0.205799880356729        0.000000000000000        0.000000000000000        0.085093037163621
       -0.880000000000000        0.246304875348517        0.035993226799939        0.210311648548578        0.000000000000000        0.000000000000000        0.087159210874319
       -0.878000000000000        0.251333240343259        0.036379328442112        0.214953911901147        0.000000000000000        0.000000000000000        0.089287291729517
       -0.876000000000000        0.256503441707451        0.036772258185678        0.219731183521773        0.000000000000000        0.000000000000000        0.091479462668047
       -0.874000000000000        0.261820321767514        0.037172166927943        0.224648154839572        0.000000000000000        0.000000000000000        0.093737993955814
       -0.872000000000000        0.267288912606637        0.037579209328807        0.229709703277831        0.000000000000000        0.000000000000000        0.096065246974512
       -0.870000000000000        0.272914444173374        0.037993543914952        0.234920900258423        0.000000000000000        0.000000000000000        0.098463678171735
       -0.868000000000000        0.278702352739043        0.038415333179734        0.240287019559308        0.000000000000000        0.000000000000000        0.100935843189787
       -0.866000000000000        0.284658289711408        0.038844743691244        0.245813546020165        0.000000000000000        0.000000000000000        0.103484401164460
       -0.864000000000000        0.290788130825881        0.039281946201108        0.251506184624773        0.000000000000000        0.000000000000000        0.106112119211833
       -0.862000000000000        0.297097985718974        0.039727115755469        0.257370869963504        0.000000000000000        0.000000000000000        0.108821877104018
       -0.860000000000000        0.303594207901165        0.040180431810993        0.263413776090171        0.000000000000000        0.000000000000000        0.111616672139589
       -0.858000000000000        0.310283405134924        0.040642078353036        0.269641326781888        0.000000000000000        0.000000000000000        0.114499624214426
       -0.856000000000000        0.317172450229182        0.041112244016427        0.276060206212755        0.000000000000000        0.000000000000000        0.117473981098164
       -0.854000000000000        0.324268492266405        0.041591122209866        0.282677370056540        0.000000000000000        0.000000000000000        0.120543123923337
       -0.852000000000000        0.331578968262838        0.042078911245581        0.289500057017256        0.000000000000000        0.000000000000000        0.123710572885837
       -0.850000000000000        0.339111615272306        0.042575814469716        0.296535800802591        0.000000000000000        0.000000000000000        0.126979993166437
       -0.848000000000000        0.346874482937787        0.043082040397719        0.303792442540068        0.000000000000000        0.000000000000000        0.130355201071175
       -0.846000000000000        0.354875946500348        0.043597802853212        0.311278143647137        0.000000000000000        0.000000000000000        0.133840170396962
       -0.844000000000000        0.363124720255746        0.044123321110684        0.319001399145062        0.000000000000000        0.000000000000000        0.137439039017189
       -0.842000000000000        0.371629871469077        0.044658820041927        0.326971051427150        0.000000000000000        0.000000000000000        0.141156115692611
       -0.840000000000000        0.380400834733219        0.045204530266612        0.335196304466608        0.000000000000000        0.000000000000000        0.144995887099998
       -0.838000000000000        0.389447426767064        0.045760688306040        0.343686738461024        0.000000000000000        0.000000000000000        0.148963025077492
       -0.836000000000000        0.398779861637867        0.046327536743657        0.352452324894211        0.000000000000000        0.000000000000000        0.153062394075277
       -0.834000000000000        0.408408766390662        0.046905324385298        0.361503442005365        0.000000000000000        0.000000000000000        0.157299058810033
       -0.832000000000000        0.418345197057533        0.047494306428530        0.370850890629003        0.000000000000000        0.000000000000000        0.161678292100236
       -0.830000000000000        0.428600655011870        0.048094744634247        0.380505910377623        0.000000000000000        0.000000000000000        0.166205582871688
       -0.828000000000000        0.439187103637048        0.048706907501565        0.390480196135483        0.000000000000000        0.000000000000000        0.170886644316959
       -0.826000000000000        0.450116985239861        0.049331070451149        0.400785914788712        0.000000000000000        0.000000000000000        0.175727422168781
       -0.824000000000000        0.461403238167182        0.049967516008744        0.411435722158438        0.000000000000000        0.000000000000000        0.180734103074847
       -0.822000000000000        0.473059314037028        0.050616533997510        0.422442780039518        0.000000000000000        0.000000000000000        0.185913123021004
       -0.820000000000000        0.485099194998788        0.051278421733729        0.433820773265059        0.000000000000000        0.000000000000000        0.191271175765665
       -0.818000000000000        0.497537410920262        0.051953484227621        0.445583926692641        0.000000000000000        0.000000000000000        0.196815221232510
       -0.816000000000000        0.510389056367525        0.052642034389319        0.457747021978206        0.000000000000000        0.000000000000000        0.202552493794444
       -0.814000000000000        0.523669807243152        0.053344393240663        0.470325414002489        0.000000000000000        0.000000000000000        0.208490510380913
       -0.812000000000000        0.537395936903735        0.054060890133638        0.483335046770097        0.000000000000000        0.000000000000000        0.214637078318229
       -0.810000000000000        0.551584331562098        0.054791862971268        0.496792468590829        0.000000000000000        0.000000000000000        0.221000302809781
       -0.808000000000000        0.566252504746918        0.055537658437930        0.510714846308988        0.000000000000000        0.000000000000000        0.227588593935529
       -0.806000000000000        0.581418610557811        0.056298632233282        0.525119978324529        0.000000000000000        0.000000000000000        0.234410673045623
       -0.804000000000000        0.597101455416404        0.057075149312003        0.540026306104401        0.000000000000000        0.000000000000000        0.241475578396199
       -0.802000000000000        0.613320507974890        0.057867584133448        0.555452923841442        0.000000000000000        0.000000000000000        0.248792669853997
       -0.800000000000000        0.630095906780562        0.058676320910218        0.571419585870344        0.000000000000000        0.000000000000000        0.256371632480063
       -0.798000000000000        0.647448465282025        0.059501753871485        0.587946711410540        0.000000000000000        0.000000000000000        0.264222478769527
       -0.796000000000000        0.665399673656711        0.060344287527067        0.605055386129644        0.000000000000000        0.000000000000000        0.272355549301288
       -0.794000000000000        0.683971696915804        0.061204336940647        0.622767359975156        0.000000000000000        0.000000000000000        0.280781511517254
       -0.792000000000000        0.703187368669398        0.062082328008343        0.641105040661056        0.000000000000000        0.000000000000000        0.289511356326357
       -0.790000000000000        0.723070179841042        0.062978697746478        0.660091482094564        0.000000000000000        0.000000000000000        0.298556392174043
       -0.788000000000000        0.743644261586088        0.063893894583359        0.679750367002729        0.000000000000000        0.000000000000000        0.307928236209685
       -0.786000000000000        0.764934361540975        0.064828378660994        0.700105982879981        0.000000000000000        0.000000000000000        0.317638802109494
       -0.784000000000000        0.786965812500983        0.065782622141788        0.721183190359195        0.000000000000000        0.000000000000000        0.327700284108704
       -0.782000000000000        0.809764492476819        0.066757109524944        0.743007382951875        0.000000000000000        0.000000000000000        0.338125136713465
       -0.780000000000000        0.833356775055145        0.067752337967754        0.765604437087391        0.000000000000000        0.000000000000000        0.348926049559819
       -0.778000000000000        0.857769468865515        0.068768817617384        0.789000651248131        0.000000000000000        0.000000000000000        0.360115916815373
