                  #Energy              Total trace      Spin Up (spin axis)      Spin Dn (spin axis)         <Sz> (spin axis)
       -1.000000000000000        0.120836518734517        0.033002058964224        0.087834459770292        0.027416200403034
       -0.998000000000000        0.122216146368831        0.033201371451624        0.089014774917207        0.027906701732791
       -0.996000000000000        0.123623307529157        0.033403230975981        0.090220076553176        0.028408422788597
       -0.994000000000000        0.125058699454477        0.033607681534385        0.091451017920092        0.028921668192854
       -0.992000000000000        0.126523040405438        0.033814768071764        0.092708272333674        0.029446752130955
       -0.990000000000000        0.128017070385197        0.034024536495834        0.093992533889364        0.029983998696765
       -0.988000000000000        0.129541551901129        0.034237033693190        0.095304518207939        0.030533742257374
       -0.986000000000000        0.131097270748722        0.034452307570587        0.096644963178135        0.031096327803774
       -0.984000000000000        0.132685036828421        0.034670407062106        0.098014629766315        0.031672111352105
       -0.982000000000000        0.134305685014303        0.034891382176004        0.099414302838299        0.032261460331147
       -0.980000000000000        0.135960076011304        0.035115283999818        0.100844792011487        0.032864754005834
       -0.978000000000000        0.137649097291153        0.035342164735331        0.102306932555823        0.033482383910246
       -0.976000000000000        0.139373664041120        0.035572077737783        0.103801586303337        0.034114754282777
       -0.974000000000000        0.141134720172942        0.035805077527038        0.105329642645904        0.034762282559433
       -0.972000000000000        0.142933239332908        0.036041219825213        0.106892019507695        0.035425399841241
       -0.970000000000000        0.144770226006439        0.036280561593074        0.108489664413365        0.036104551410146
       -0.968000000000000        0.146646716608313        0.036523161045020        0.110123555563294        0.036800197259137
       -0.966000000000000        0.148563780675570        0.036769077697191        0.111794702978379        0.037512812640594
       -0.964000000000000        0.150522522067461        0.037018372394461        0.113504149673000        0.038242888639269
       -0.962000000000000        0.152524080228376        0.037271107337898        0.115252972890478        0.038990932776290
       -0.960000000000000        0.154569631508781        0.037527346139090        0.117042285369692        0.039757469615301
       -0.958000000000000        0.156660390521692        0.037787153824315        0.118873236697377        0.040543041436531
       -0.956000000000000        0.158797611591164        0.038050596901426        0.120747014689738        0.041348208894156
       -0.954000000000000        0.160982590213464        0.038317743378896        0.122664846834569        0.042173551727837
       -0.952000000000000        0.163216664627283        0.038588662817145        0.124628001810138        0.043019669496497
       -0.950000000000000        0.165501217410695        0.038863426359550        0.126637791051144        0.043887182345797
       -0.948000000000000        0.167837677165096        0.039142106774830        0.128695570390267        0.044776731807718
       -0.946000000000000        0.170227520271474        0.039424778503698        0.130802741767776        0.045688981632039
       -0.944000000000000        0.172672272709620        0.039711517695421        0.132960755014200        0.046624618659389
       -0.942000000000000        0.175173511976340        0.040002402265163        0.135171109711177        0.047584353723007
       -0.940000000000000        0.177732869037222        0.040297511917193        0.137435357120029        0.048568922601418
       -0.938000000000000        0.180352030441082        0.040596928219755        0.139755102221327        0.049579087000786
       -0.936000000000000        0.183032740434133        0.040900734627161        0.142132005806972        0.050615635589906
       -0.934000000000000        0.185776803249682        0.041209016556877        0.144567786692805        0.051679385067964
       -0.932000000000000        0.188586085420990        0.041521861408052        0.147064224012938        0.052771181302443
       -0.930000000000000        0.191462518264117        0.041839358652590        0.149623159611527        0.053891900479469
       -0.928000000000000        0.194408100405479        0.042161599849054        0.152246500556425        0.055042450353686
       -0.926000000000000        0.197424900471751        0.042488678734314        0.154936221737437        0.056223771501562
       -0.924000000000000        0.200515059875157        0.042820691261525        0.157694368613631        0.057436838676053
       -0.922000000000000        0.203680795689750        0.043157735657402        0.160523060032348        0.058682662187473
       -0.920000000000000        0.206924403718137        0.043499912486972        0.163424491231165        0.059962289372096
       -0.918000000000000        0.210248261658647        0.043847324732383        0.166400936926264        0.061276806096941
       -0.916000000000000        0.213654832383493        0.044200077826725        0.169454754556768        0.062627338365021
       -0.914000000000000        0.217146667419871        0.044558279740763        0.172588387679109        0.064015053969173
       -0.912000000000000        0.220726410553719        0.044922041047413        0.175804369506306        0.065441164229446
       -0.910000000000000        0.224396801584480        0.045291474992811        0.179105326591669        0.066906925799429
       -0.908000000000000        0.228160680277084        0.045666697560367        0.182493982716716        0.068413642578175
       -0.906000000000000        0.232020990447091        0.046047827553345        0.185973162893745        0.069962667670200
       -0.904000000000000        0.235980784278120        0.046434986663726        0.189545797614394        0.071555405475334
       -0.902000000000000        0.240043226799915        0.046828299565468        0.193214927234447        0.073193313834490
       -0.900000000000000        0.244211600564225        0.047227893972366        0.196983706591860        0.074877906309747
       -0.898000000000000        0.248489310548442        0.047633900742642        0.200855409805800        0.076610754531579
       -0.896000000000000        0.252879889268701        0.048046453947957        0.204833435320744        0.078393490686393
       -0.894000000000000        0.257387002123560        0.048465690972417        0.208921311151143        0.080227810089363
       -0.892000000000000        0.262014452973617        0.048891752603294        0.213122700370323        0.082115473883514
       -0.890000000000000        0.266766189974628        0.049324783113910        0.217441406860718        0.084058311873404
       -0.888000000000000        0.271646311671388        0.049764930367519        0.221881381303870        0.086058225468175
       -0.886000000000000        0.276659073355268        0.050212345915160        0.226446727440108        0.088117190762474
       -0.884000000000000        0.281808893719512        0.050667185093901        0.231141708625611        0.090237261765855
       -0.882000000000000        0.287100361804885        0.051129607135368        0.235970754669517        0.092420573767074
       -0.880000000000000        0.292538244258300        0.051599775279276        0.240938468979024        0.094669346849874
       -0.878000000000000        0.298127492869601        0.052077856858356        0.246049636011245        0.096985889576444
       -0.876000000000000        0.303873252534802        0.052564023448449        0.251309229086353        0.099372602818952
       -0.874000000000000        0.309780869465738        0.053058450957801        0.256722418507938        0.101831983775069
       -0.872000000000000        0.315855899821607        0.053561319760915        0.262294580060693        0.104366630149889
       -0.870000000000000        0.322104118705731        0.054072814821427        0.268031303884304        0.106979244531438
       -0.868000000000000        0.328531529520381        0.054593125812778        0.273938403707603        0.109672638947412
       -0.866000000000000        0.335144373772752        0.055122447262136        0.280021926510616        0.112449739624240
       -0.864000000000000        0.341949141247016        0.055660978676353        0.286288162570664        0.115313591947156
       -0.862000000000000        0.348952580633285        0.056208924682928        0.292743655950357        0.118267365633715
       -0.860000000000000        0.356161710597974        0.056766495180080        0.299395215417895        0.121314360118907
       -0.858000000000000        0.363583831291066        0.057333905474351        0.306249925816715        0.124458010171182
       -0.856000000000000        0.371226536341529        0.057911376444241        0.313315159897288        0.127701891726523
       -0.854000000000000        0.379097725314661        0.058499134689507        0.320598590625155        0.131049727967824
       -0.852000000000000        0.387205616650229        0.059097412689918        0.328108203960311        0.134505395635196
       -0.850000000000000        0.395558761123271        0.059706448982822        0.335852312140450        0.138072931578814
       -0.848000000000000        0.404166055781684        0.060326488326770        0.343839567454914        0.141756539564072
       -0.846000000000000        0.413036758402295        0.060957781874631        0.352078976527664        0.145560597326516
       -0.844000000000000        0.422180502438679        0.061600587359195        0.360579915079485        0.149489663860145
       -0.842000000000000        0.431607312518202        0.062255169284607        0.369352143233595        0.153548486974494
       -0.840000000000000        0.441327620394206        0.062921799109858        0.378405821284348        0.157742011087245
       -0.838000000000000        0.451352281412380        0.063600755454569        0.387751525957811        0.162075385251621
       -0.836000000000000        0.461692591467356        0.064292324293690        0.397400267173666        0.166553971439988
       -0.834000000000000        0.472360304404590        0.064996799177273        0.407363505227317        0.171183353025022
       -0.832000000000000        0.483367649862168        0.065714481444213        0.417653168417955        0.175969343486871
       -0.830000000000000        0.494727351508219        0.066445680437096        0.428281671071122        0.180917995317013
       -0.828000000000000        0.506452645632887        0.067190713749717        0.439261931883169        0.186035609066726
       -0.826000000000000        0.518557300034952        0.067949907431114        0.450607392603838        0.191328742586362
       -0.824000000000000        0.531055633169231        0.068723596269431        0.462332036899800        0.196804220315184
       -0.822000000000000        0.543962533403106        0.069512124010614        0.474450409392492        0.202469142690939
       -0.820000000000000        0.557293478360567        0.070315843627744        0.486977634732823        0.208330895552540
       -0.818000000000000        0.571064554200248        0.071135117584916        0.499929436615332        0.214397159515208
       -0.816000000000000        0.585292474696722        0.071970318113993        0.513322156582729        0.220675919234368
       -0.814000000000000        0.599994599976124        0.072821827490648        0.527172772485476        0.227175472497414
       -0.812000000000000        0.615188954701291        0.073690038327031        0.541498916374260        0.233904439023615
       -0.810000000000000        0.630894245524197        0.074575353868914        0.556318891655283        0.240871768893184
       -0.808000000000000        0.647129877526148        0.075478188299705        0.571651689226442        0.248086750463368
       -0.806000000000000        0.663915969395314        0.076398967062906        0.587517002332408        0.255559017634751
       -0.804000000000000        0.681273366958908        0.077338127179968        0.603935239778941        0.263298556299487
       -0.802000000000000        0.699223654789984        0.078296117592934        0.620927537197049        0.271315709802057
       -0.800000000000000        0.717789165353161        0.079273399500471        0.638515765852690        0.279621183176110
       -0.798000000000000        0.736992985315554        0.080270446717708        0.656722538597845        0.288226045940068
       -0.796000000000000        0.756858958431754        0.081287746043037        0.675571212388717        0.297141733172840
       -0.794000000000000        0.777411684363734        0.082325797625126        0.695085886738608        0.306380044556741
       -0.792000000000000        0.798676512857855        0.083385115360225        0.715291397497630        0.315953141068702
       -0.790000000000000        0.820679532405981        0.084466227282074        0.736213305123907        0.325873538920917
       -0.788000000000000        0.843447552657095        0.085569675978497        0.757877876678598        0.336154100350051
       -0.786000000000000        0.867008079559085        0.086696019002892        0.780312060556193        0.346808020776651
       -0.784000000000000        0.891389282296088        0.087845829321017        0.803543452975071        0.357848811827027
       -0.782000000000000        0.916619950848524        0.089019695745026        0.827600255103497        0.369290279679235
       -0.780000000000000        0.942729443013660        0.090218223403786        0.852511219609874        0.381146498103044
       -0.778000000000000        0.969747619552949        0.091442034209597        0.878305585343352        0.393431775566878
       -0.776000000000000        0.997704766127804        0.092691767350187        0.905012998777618        0.406160615713716
       -0.774000000000000        1.026631500473118        0.093968079782994        0.932663420690123        0.419347670453564
       -0.772000000000000        1.056558663389002        0.095271646763208        0.961287016625794        0.433007684931293
       -0.770000000000000        1.087517191814233        0.096603162372796        0.990914029441437        0.447155433534320
       -0.768000000000000        1.119537972474159        0.097963340063166        1.021574632410992        0.461805646173913
       -0.766000000000000        1.152651674454008        0.099352913240448        1.053298761213560        0.476972923986556
       -0.764000000000000        1.186888559037052        0.100772635825110        1.086115923211942        0.492671643693416
       -0.762000000000000        1.222278265424465        0.102223282884193        1.120054982540272        0.508915849828040
       -0.760000000000000        1.258849570894499        0.103705651233817        1.155143919660681        0.525719134213432
       -0.758000000000000        1.296630124262488        0.105220560100254        1.191409564162234        0.543094502030990
       -0.756000000000000        1.335646151834290        0.106768851776470        1.228877300057820        0.561054224140675
       -0.754000000000000        1.375922135282393        0.108351392331195        1.267570742951198        0.579609675310001
       -0.752000000000000        1.417480461488596        0.109969072305367        1.307511389183229        0.598771158438931
       -0.750000000000000        1.460341044909563        0.111622807483421        1.348718237426143        0.618547714971361
       -0.748000000000000        1.504520923655444        0.113313539639372        1.391207384016072        0.638946922188350
       -0.746000000000000        1.550033831388975        0.115042237364081        1.434991594024893        0.659974678330406
       -0.744000000000000        1.596889747972244        0.116809896902528        1.480079851069716        0.681634977083594
       -0.742000000000000        1.645094432710998        0.118617543015077        1.526476889695921        0.703929673340422
       -0.740000000000000        1.694648945334717        0.120466229895272        1.574182715439445        0.726858242772086
       -0.738000000000000        1.745549160749719        0.122357042124959        1.623192118624760        0.750417538249901
       -0.736000000000000        1.797785284861809        0.124291095666797        1.673494189195013        0.774601546764108
       -0.734000000000000        1.851341379878447        0.126269538908282        1.725071840970165        0.799401151030941
       -0.732000000000000        1.906194908435458        0.128293553745459        1.777901354689999        0.824803900472270
       -0.730000000000000        1.962316307004858        0.130364356732659        1.831951950272199        0.850793796769770
       -0.728000000000000        2.019668599498333        0.132483200276581        1.887185399221752        0.877351099472585
       -0.726000000000000        2.078207062629488        0.134651373906447        1.943555688723040        0.904452157408297
       -0.724000000000000        2.137878954592078        0.136870205579223        2.001008749012855        0.932069271716816
       -0.722000000000000        2.198623318584199        0.139141063097364        2.059482255486836        0.960170596194736
       -0.720000000000000        2.260370871700815        0.141465355550174        2.118905516150641        0.988720080300233
       -0.718000000000000        2.323043989142131        0.143844534881963        2.179199454260168        1.017677459689103
       -0.716000000000000        2.386556791724327        0.146280097514845        2.240276694209482        1.046998298347319
       -0.714000000000000        2.450815343010361        0.148773586076778        2.302041756933583        1.076634085428403
       -0.712000000000000        2.515717960109637        0.151326591229428        2.364391368880209        1.106532388825390
       -0.710000000000000        2.581155639406741        0.153940753608636        2.427214885798105        1.136637066094735
       -0.708000000000000        2.647012595971247        0.156617765887155        2.490394830084092        1.166888532098469
       -0.706000000000000        2.713166912247319        0.159359374970927        2.553807537276392        1.197224081152733
       -0.704000000000000        2.779491288888383        0.162167384324018        2.617323904564365        1.227578260120173
       -0.702000000000000        2.845853887960873        0.165043656499749        2.680810231461125        1.257883287480688
       -0.700000000000000        2.912119256120975        0.167990115821695        2.744129140299280        1.288069512238792
       -0.698000000000000        2.978149313418154        0.171008751274559        2.807140562143596        1.318065905434519
       -0.696000000000000        3.043804391982244        0.174101619641295        2.869702772340949        1.347800576349827
       -0.694000000000000        3.108944307548333        0.177270848892309        2.931673458656024        1.377201304881858
       -0.692000000000000        3.173429446782780        0.180518641878815        2.992910804903965        1.406196081512575
       -0.690000000000000        3.237121853390344        0.183847280365506        3.053274573024837        1.434713646329665
       -0.688000000000000        3.299886297031595        0.187259129453785        3.112627167577809        1.462684019062012
