                  #Energy              Total trace      Spin Up (spin axis)      Spin Dn (spin axis)         <Sz> (spin axis)
       -1.000000000000000        0.120741690675450        0.032846036617613        0.087895654057837        0.027524808720112
       -0.998000000000000        0.122120629499125        0.033042582044956        0.089078047454169        0.028017732704606
       -0.996000000000000        0.123527141469332        0.033241697129423        0.090285444339908        0.028521873605242
       -0.994000000000000        0.124961924396536        0.033443427237934        0.091518497158603        0.029037534960334
       -0.992000000000000        0.126425697067213        0.033647818692129        0.092777878375084        0.029565029841478
       -0.990000000000000        0.127919199977889        0.033854918797784        0.094064281180105        0.030104681191161
       -0.988000000000000        0.129443196089782        0.034064775866166        0.095378420223616        0.030656822178725
       -0.986000000000000        0.130998471610190        0.034277439241724        0.096721032368466        0.031221796563371
       -0.984000000000000        0.132585836814305        0.034492959320584        0.098092877493721        0.031799959086568
       -0.982000000000000        0.134206126879772        0.034711387581302        0.099494739298470        0.032391675858584
       -0.980000000000000        0.135860202784320        0.034932776610244        0.100927426174076        0.032997324781916
       -0.978000000000000        0.137548952210876        0.035157180129308        0.102391772081568        0.033617295976130
       -0.976000000000000        0.139273290495829        0.035384653013227        0.103888637482602        0.034251992234688
       -0.974000000000000        0.141034161642801        0.035615251341456        0.105418910301346        0.034901829479945
       -0.972000000000000        0.142832539320410        0.035849032394898        0.106983506925512        0.035567237265307
       -0.970000000000000        0.144669427964490        0.036086054720121        0.108583373244369        0.036248659262124
       -0.968000000000000        0.146545863875367        0.036326378132037        0.110219485743330        0.036946553805647
       -0.966000000000000        0.148462916384093        0.036570063756484        0.111892852627609        0.037661394435562
       -0.964000000000000        0.150421689069167        0.036817174070284        0.113604514998884        0.038393670464300
       -0.962000000000000        0.152423321002015        0.037067772922447        0.115355548079567        0.039143887578560
       -0.960000000000000        0.154468988063095        0.037321925569094        0.117147062494001        0.039912568462453
       -0.958000000000000        0.156559904312726        0.037579698715853        0.118980205596872        0.040700253440509
       -0.956000000000000        0.158697323399637        0.037841160552618        0.120856162847019        0.041507501147201
       -0.954000000000000        0.160882540049763        0.038106380781969        0.122776159267794        0.042334889242912
       -0.952000000000000        0.163116891605568        0.038375430667605        0.124741460937962        0.043183015135179
       -0.950000000000000        0.165401759635978        0.038648383067016        0.126753376568963        0.044052496750973
       -0.948000000000000        0.167738571599196        0.038925312472136        0.128813259127060        0.044943973327462
       -0.946000000000000        0.170128802608669        0.039206295059744        0.130922507548925        0.045858106244590
       -0.944000000000000        0.172573977230837        0.039491408713149        0.133082568517688        0.046795579902269
       -0.942000000000000        0.175075671387134        0.039780733089768        0.135294938297366        0.047757102603799
       -0.940000000000000        0.177635514345006        0.040074349650918        0.137561164694088        0.048743407521585
       -0.938000000000000        0.180255190755693        0.040372341707682        0.139882849048012        0.049755253670165
       -0.936000000000000        0.182936442839324        0.040674794485120        0.142261648354205        0.050793426934543
       -0.934000000000000        0.185681072574554        0.040981795136666        0.144699277437888        0.051858741150611
       -0.932000000000000        0.188490944099382        0.041293432833875        0.147197511265506        0.052952039215815
       -0.930000000000000        0.191367986112432        0.041609798792995        0.149758187319437        0.054074194263221
       -0.928000000000000        0.194314194431328        0.041930986330564        0.152383208100764        0.055226110885100
       -0.926000000000000        0.197331634651735        0.042257090922621        0.155074543729115        0.056408726403247
       -0.924000000000000        0.200422444925425        0.042588210262333        0.157834234663092        0.057623012200379
       -0.922000000000000        0.203588838856396        0.042924444310939        0.160664394545457        0.058869975117259
       -0.920000000000000        0.206833108519633        0.043265895360761        0.163567213158873        0.060150658899056
       -0.918000000000000        0.210157627619093        0.043612668089735        0.166544959529357        0.061466145719811
       -0.916000000000000        0.213564854791449        0.043964869632745        0.169599985158704        0.062817557762979
       -0.914000000000000        0.217057337050088        0.044322609645692        0.172734727404397        0.064206058879353
       -0.912000000000000        0.220637713363852        0.044686000360875        0.175951713002977        0.065632856321051
       -0.910000000000000        0.224308718430187        0.045055156661028        0.179253561769158        0.067099202554065
       -0.908000000000000        0.228073186591942        0.045430196155092        0.182642990436850        0.068606397140879
       -0.906000000000000        0.231934055931174        0.045811239236982        0.186122816694192        0.070155788728605
       -0.904000000000000        0.235894372562554        0.046198409174653        0.189695963387901        0.071748777106624
       -0.902000000000000        0.239957295078832        0.046591832166717        0.193365462912114        0.073386815372699
       -0.900000000000000        0.244126099262872        0.046991637447049        0.197134461815823        0.075071412184387
       -0.898000000000000        0.248404182927242        0.047397957334996        0.201006225592246        0.076804134128625
       -0.896000000000000        0.252795071054359        0.047810927341734        0.204984143712625        0.078586608185445
       -0.894000000000000        0.257302421088276        0.048230686241245        0.209071734847031        0.080420524302893
       -0.892000000000000        0.261930028531847        0.048657376166442        0.213272652365405        0.082307638099482
       -0.890000000000000        0.266681832756298        0.049091142698608        0.217590690057690        0.084249773679541
       -0.888000000000000        0.271561923067485        0.049532134948224        0.222029788119261        0.086248826585518
       -0.886000000000000        0.276574545084403        0.049980505668562        0.226594039415841        0.088306766873640
       -0.884000000000000        0.281724107336419        0.050436411337572        0.231287695998847        0.090425642330637
       -0.882000000000000        0.287015188222637        0.050900012267198        0.236115175955439        0.092607581844121
       -0.880000000000000        0.292452543250011        0.051371472711915        0.241081070538096        0.094854798913091
       -0.878000000000000        0.298041112575617        0.051850960965753        0.246190151609863        0.097169595322055
       -0.876000000000000        0.303786028908860        0.052338649473101        0.251447379435759        0.099554364981329
       -0.874000000000000        0.309692625765947        0.052834714951647        0.256857910814300        0.102011597931327
       -0.872000000000000        0.315766446048824        0.053339338496708        0.262427107552116        0.104543884527704
       -0.870000000000000        0.322013251044470        0.053852705713010        0.268160545331460        0.107153919809225
       -0.868000000000000        0.328439029782707        0.054375006832907        0.274064022949800        0.109844508058447
       -0.866000000000000        0.335050008811125        0.054906436838594        0.280143571972532        0.112618567566969
       -0.864000000000000        0.341852662358051        0.055447195604126        0.286405466753925        0.115479135574900
       -0.862000000000000        0.348853722985110        0.055997488018728        0.292856234966382        0.118429373473827
       -0.860000000000000        0.356060192624515        0.056557524143054        0.299502668481461        0.121472572169204
       -0.858000000000000        0.363479354077256        0.057127519324818        0.306351834752438        0.124612157713810
       -0.856000000000000        0.371118783042716        0.057707694380774        0.313411088661942        0.127851697140584
       -0.854000000000000        0.378986360536892        0.058298275718374        0.320688084818518        0.131194904550072
       -0.852000000000000        0.387090285866950        0.058899495505775        0.328190790361175        0.134645647427700
       -0.850000000000000        0.395439090079231        0.059511591838486        0.335927498240745        0.138207953201129
       -0.848000000000000        0.404041649905512        0.060134808885939        0.343906841019574        0.141886016066817
       -0.846000000000000        0.412907202263767        0.060769397093573        0.352137805170193        0.145684204038310
       -0.844000000000000        0.422045359184556        0.061415613319907        0.360629745864649        0.149607066272371
       -0.842000000000000        0.431466123363593        0.062073721053185        0.369392402310408        0.153659340628611
       -0.840000000000000        0.441179904116244        0.062743990575880        0.378435913540364        0.157845961482242
       -0.838000000000000        0.451197533916015        0.063426699166312        0.387770834749703        0.162172067791696
       -0.836000000000000        0.461530285361833        0.064122131300236        0.397408154061597        0.166643011380681
       -0.834000000000000        0.472189888644325        0.064830578839736        0.407359309804590        0.171264365482427
       -0.832000000000000        0.483188549451162        0.065552341269457        0.417636208181705        0.176041933456124
       -0.830000000000000        0.494538967264367        0.066287725886978        0.428251241377390        0.180981757745206
       -0.828000000000000        0.506254354033590        0.067037048044600        0.439217305988990        0.186090128972195
       -0.826000000000000        0.518348453172154        0.067800631370256        0.450547821801899        0.191373595215822
       -0.824000000000000        0.530835558780281        0.068578808011897        0.462256750768384        0.196838971378243
       -0.822000000000000        0.543730535040635        0.069371918880962        0.474358616159673        0.202493348639355
       -0.820000000000000        0.557048835688561        0.070180313894309        0.486868521794252        0.208344103949971
       -0.818000000000000        0.570806523448636        0.071004352252738        0.499802171195898        0.214398909471580
       -0.816000000000000        0.585020289276550        0.071844402698368        0.513175886578183        0.220665741939908
       -0.814000000000000        0.599707471276761        0.072700843786911        0.527006627489850        0.227152891851470
       -0.812000000000000        0.614886073141842        0.073574064189186        0.541312008952657        0.233868972381735
       -0.810000000000000        0.630574781778333        0.074464462959740        0.556110318818593        0.240822927929426
       -0.808000000000000        0.646792984068332        0.075372449871779        0.571420534196553        0.248024042162387
       -0.806000000000000        0.663560782295333        0.076298445700231        0.587262336595102        0.255481945447435
       -0.804000000000000        0.680899008016895        0.077242882566578        0.603656125450317        0.263206621441870
       -0.802000000000000        0.698829234012145        0.078206204251400        0.620623029760746        0.271208412754673
       -0.800000000000000        0.717373783838309        0.079188866561694        0.638184917276614        0.279498025357460
       -0.798000000000000        0.736555738520467        0.080191337658413        0.656364400862055        0.288086531601821
       -0.796000000000000        0.756398939937981        0.081214098445282        0.675184841492700        0.296985371523709
       -0.794000000000000        0.776927990127860        0.082257642923722        0.694670347204138        0.306206352140208
       -0.792000000000000        0.798168245994584        0.083322478599131        0.714845767395453        0.315761644398161
       -0.790000000000000        0.820145808601085        0.084409126877234        0.735736681723851        0.325663777423309
       -0.788000000000000        0.842887506143887        0.085518123471328        0.757369382672559        0.335925629600616
       -0.786000000000000        0.866420869816579        0.086650018833951        0.779770850982629        0.346560416074339
       -0.784000000000000        0.890774101455338        0.087805378605383        0.802968722849955        0.357581672122286
       -0.782000000000000        0.915976031852615        0.088984784050104        0.826991247802511        0.369003231876203
       -0.780000000000000        0.942056068593178        0.090188832555002        0.851867236038175        0.380839201741586
       -0.778000000000000        0.969044132029984        0.091418138083496        0.877625993946488        0.393103927931496
       -0.776000000000000        0.996970578097838        0.092673331701422        0.904297246396416        0.405811957347497
       -0.774000000000000        1.025866106402936        0.093955062088157        0.931911044314779        0.418977991113311
       -0.772000000000000        1.055761652092405        0.095263996062042        0.960497656030363        0.432616829984160
       -0.770000000000000        1.086688259901025        0.096600819148264        0.990087440752761        0.446743310802249
       -0.768000000000000        1.118676938707453        0.097966236150828        1.020710702556625        0.461372233202899
       -0.766000000000000        1.151758494981073        0.099360971728255        1.052397523252817        0.476518275762281
       -0.764000000000000        1.185963343510603        0.100785771015880        1.085177572494723        0.492195900739421
       -0.762000000000000        1.221321293926548        0.102241400265599        1.119079893660949        0.508419246697675
       -0.760000000000000        1.257861311547826        0.103728647490646        1.154132664057179        0.525202008283266
       -0.758000000000000        1.295611251465334        0.105248323145809        1.190362928319525        0.542557302586858
       -0.756000000000000        1.334597564936170        0.106801260829861        1.227796304106310        0.560497521638224
       -0.754000000000000        1.374844977542709        0.108388318012374        1.266456659530335        0.579034170758981
       -0.752000000000000        1.416376139081835        0.110010376787996        1.306365762293839        0.598177692752921
       -0.750000000000000        1.459211245738977        0.111668344662841        1.347542901076137        0.617937278206648
       -0.748000000000000        1.503367635673708        0.113363155349913        1.390004480323795        0.638320662486941
       -0.746000000000000        1.548859360112434        0.115095769623041        1.433763590489393        0.659333910433176
       -0.744000000000000        1.595696732762704        0.116867176197669        1.478829556565035        0.680981190183683
       -0.742000000000000        1.643885861501257        0.118678392616403        1.525207468884854        0.703264538134226
       -0.740000000000000        1.693428167297591        0.120530466202897        1.572897701094695        0.726183617445899
       -0.738000000000000        1.744319896506572        0.122424475051720        1.621895421454852        0.749735473201566
       -0.736000000000000        1.796551633722042        0.124361529039417        1.672190104682625        0.773914287821604
       -0.734000000000000        1.850107823616629        0.126342770885558        1.723765052731072        0.798711140922757
       -0.732000000000000        1.904966311271073        0.128369377286339        1.776596933984734        0.824113778349197
       -0.730000000000000        1.961097911137443        0.130442560044715        1.830655351092728        0.850106395524006
       -0.728000000000000        2.018466015960989        0.132563567305359        1.885902448655630        0.876669440675136
       -0.726000000000000        2.077026256962891        0.134733684815298        1.942292572147593        0.903779443666148
       -0.724000000000000        2.136726227170485        0.136954237254337        1.999771989916148        0.931408876330905
       -0.722000000000000        2.197505279146772        0.139226589625746        2.058278689521026        0.959526049947640
       -0.720000000000000        2.259294408165439        0.141552148738164        2.117742259427275        0.988095055344555
       -0.718000000000000        2.322016230388590        0.143932364721779        2.178083865666810        1.017075750472516
       -0.716000000000000        2.385585064518651        0.146368732681003        2.239216331837647        1.046423799578322
       -0.714000000000000        2.449907123098321        0.148862794406870        2.301044328691452        1.076090767142291
       -0.712000000000000        2.514880817622242        0.151416140175573        2.363464677446669        1.106024268635548
       -0.710000000000000        2.580397178964795        0.154030410711669        2.426366768253126        1.136168178770728
       -0.708000000000000        2.646340391677922        0.156707299209574        2.489633092468348        1.166462896629387
       -0.706000000000000        2.712588438155377        0.159448553537452        2.553139884617925        1.196845665540237
       -0.704000000000000        2.779013845334262        0.162255978559726        2.616757866774536        1.227250944107405
       -0.702000000000000        2.845484524399765        0.165131438650092        2.680353085749673        1.257610823549790
       -0.700000000000000        2.911864691024868        0.168076860375060        2.743787830649808        1.287855485137374
       -0.698000000000000        2.978015852074982        0.171094235394117        2.806921616680865        1.317913690643374
       -0.696000000000000        3.043797842757707        0.174185623583754        2.869612219173954        1.347713297795100
       -0.694000000000000        3.109069897640639        0.177353156466364        2.931716741174275        1.377181792353955
       -0.692000000000000        3.173691738190361        0.180599040875748        2.993092697314613        1.406246828219432
       -0.690000000000000        3.237524660115952        0.183925563052943        3.053599097063008        1.434836767005032
       -0.688000000000000        3.300432604440001        0.187335093056346        3.113097511383654        1.462881209163654
