                  #Energy              Total trace      Spin Up (spin axis)      Spin Dn (spin axis)         <Sx> (spin axis)         <Sy> (spin axis)         <Sz> (spin axis)
       -1.000000000000000        0.092642016278973        0.021143753501900        0.071498262777072        0.000000000000000        0.000000000000000        0.025177254637586
       -0.998000000000000        0.093854397759377        0.021297328018042        0.072557069741335        0.000000000000000        0.000000000000000        0.025629870861647
       -0.996000000000000        0.095091640643038        0.021453028744672        0.073638611898367        0.000000000000000        0.000000000000000        0.026092791576847
       -0.994000000000000        0.096354378901124        0.021610894213471        0.074743484687653        0.000000000000000        0.000000000000000        0.026566295237091
       -0.992000000000000        0.097643265605953        0.021770963775764        0.075872301830189        0.000000000000000        0.000000000000000        0.027050669027212
       -0.990000000000000        0.098958973590296        0.021933277622545        0.077025695967751        0.000000000000000        0.000000000000000        0.027546209172603
       -0.988000000000000        0.100302196136666        0.022097876804028        0.078204319332637        0.000000000000000        0.000000000000000        0.028053221264304
       -0.986000000000000        0.101673647689209        0.022264803250221        0.079408844438988        0.000000000000000        0.000000000000000        0.028572020594383
       -0.984000000000000        0.103074064598451        0.022434099792468        0.080639964805982        0.000000000000000        0.000000000000000        0.029102932506757
       -0.982000000000000        0.104504205890816        0.022605810184813        0.081898395706002        0.000000000000000        0.000000000000000        0.029646292760595
       -0.980000000000000        0.105964854071618        0.022779979125360        0.083184874946259        0.000000000000000        0.000000000000000        0.030202447910449
       -0.978000000000000        0.107456815960932        0.022956652281885        0.084500163679048        0.000000000000000        0.000000000000000        0.030771755698581
       -0.976000000000000        0.108980923555830        0.023135876310910        0.085845047244921        0.000000000000000        0.000000000000000        0.031354585467006
       -0.974000000000000        0.110538034939239        0.023317698886324        0.087220336052915        0.000000000000000        0.000000000000000        0.031951318583296
       -0.972000000000000        0.112129035211426        0.023502168719376        0.088626866492050        0.000000000000000        0.000000000000000        0.032562348886337
       -0.970000000000000        0.113754837473164        0.023689335589437        0.090065501883727        0.000000000000000        0.000000000000000        0.033188083147145
       -0.968000000000000        0.115416383834919        0.023879250364039        0.091537133470881        0.000000000000000        0.000000000000000        0.033828941553421
       -0.966000000000000        0.117114646479106        0.024071965030628        0.093042681448478        0.000000000000000        0.000000000000000        0.034485358208925
       -0.964000000000000        0.118850628758644        0.024267532721053        0.094583096037591        0.000000000000000        0.000000000000000        0.035157781658269
       -0.962000000000000        0.120625366340529        0.024466007740193        0.096159358600336        0.000000000000000        0.000000000000000        0.035846675430072
       -0.960000000000000        0.122439928401587        0.024667445595368        0.097772482806218        0.000000000000000        0.000000000000000        0.036552518605425
       -0.958000000000000        0.124295418869198        0.024871903025916        0.099423515843282        0.000000000000000        0.000000000000000        0.037275806408683
       -0.956000000000000        0.126192977712666        0.025079438032753        0.101113539679913        0.000000000000000        0.000000000000000        0.038017050823580
       -0.954000000000000        0.128133782293660        0.025290109910602        0.102843672383058        0.000000000000000        0.000000000000000        0.038776781236228
       -0.952000000000000        0.130119048767003        0.025503979280003        0.104615069487000        0.000000000000000        0.000000000000000        0.039555545103499
       -0.950000000000000        0.132150033544748        0.025721108119823        0.106428925424925        0.000000000000000        0.000000000000000        0.040353908652551
       -0.948000000000000        0.134228034817051        0.025941559800694        0.108286475016357        0.000000000000000        0.000000000000000        0.041172457607831
       -0.946000000000000        0.136354394143582        0.026165399121343        0.110188995022239        0.000000000000000        0.000000000000000        0.042011797950448
       -0.944000000000000        0.138530498106217        0.026392692341684        0.112137805764533        0.000000000000000        0.000000000000000        0.042872556711425
       -0.942000000000000        0.140757780035895        0.026623507223039        0.114134272812856        0.000000000000000        0.000000000000000        0.043755382794908
       -0.940000000000000        0.143037721810478        0.026857913062344        0.116179808748134        0.000000000000000        0.000000000000000        0.044660947842895
       -0.938000000000000        0.145371855731528        0.027095980732247        0.118275874999281        0.000000000000000        0.000000000000000        0.045589947133517
       -0.936000000000000        0.147761766481276        0.027337782722113        0.120423983759164        0.000000000000000        0.000000000000000        0.046543100518526
       -0.934000000000000        0.150209093162382        0.027583393176321        0.122625699986061        0.000000000000000        0.000000000000000        0.047521153404870
       -0.932000000000000        0.152715531426250        0.027832887937729        0.124882643488521        0.000000000000000        0.000000000000000        0.048524877775396
       -0.930000000000000        0.155282835696494        0.028086344590614        0.127196491105880        0.000000000000000        0.000000000000000        0.049555073257633
       -0.928000000000000        0.157912821481671        0.028343842504307        0.129568978977364        0.000000000000000        0.000000000000000        0.050612568236528
       -0.926000000000000        0.160607367799654        0.028605462879482        0.132001904920171        0.000000000000000        0.000000000000000        0.051698221020344
       -0.924000000000000        0.163368419697303        0.028871288794729        0.134497130902574        0.000000000000000        0.000000000000000        0.052812921053923
       -0.922000000000000        0.166197990886045        0.029141405253478        0.137056585632567        0.000000000000000        0.000000000000000        0.053957590189544
       -0.920000000000000        0.169098166491540        0.029415899234151        0.139682267257389        0.000000000000000        0.000000000000000        0.055133184011619
       -0.918000000000000        0.172071105927025        0.029694859741082        0.142376246185942        0.000000000000000        0.000000000000000        0.056340693222430
       -0.916000000000000        0.175119045887924        0.029978377856303        0.145140668031621        0.000000000000000        0.000000000000000        0.057581145087659
       -0.914000000000000        0.178244303484522        0.030266546792080        0.147977756692442        0.000000000000000        0.000000000000000        0.058855604950181
       -0.912000000000000        0.181449279510126        0.030559461947957        0.150889817562169        0.000000000000000        0.000000000000000        0.060165177807106
       -0.910000000000000        0.184736461855219        0.030857220964726        0.153879240890493        0.000000000000000        0.000000000000000        0.061511009962883
       -0.908000000000000        0.188108429072153        0.031159923784490        0.156948505287662        0.000000000000000        0.000000000000000        0.062894290751586
       -0.906000000000000        0.191567854102024        0.031467672709616        0.160100181392407        0.000000000000000        0.000000000000000        0.064316254341395
       -0.904000000000000        0.195117508163721        0.031780572464031        0.163336935699690        0.000000000000000        0.000000000000000        0.065778181617830
       -0.902000000000000        0.198760264816748        0.032098730255287        0.166661534561462        0.000000000000000        0.000000000000000        0.067281402153087
       -0.900000000000000        0.202499104210836        0.032422255841700        0.170076848369136        0.000000000000000        0.000000000000000        0.068827296263718
       -0.898000000000000        0.206337117517835        0.032751261596488        0.173585855921347        0.000000000000000        0.000000000000000        0.070417297162430
       -0.896000000000000        0.210277511568923        0.033085862577596        0.177191648991327        0.000000000000000        0.000000000000000        0.072052893206865
       -0.894000000000000        0.214323613691905        0.033426176597322        0.180897437094583        0.000000000000000        0.000000000000000        0.073735630248631
       -0.892000000000000        0.218478876772955        0.033772324294842        0.184706552478113        0.000000000000000        0.000000000000000        0.075467114091635
       -0.890000000000000        0.222746884537961        0.034124429211357        0.188622455326604        0.000000000000000        0.000000000000000        0.077249013057624
       -0.888000000000000        0.227131357074332        0.034482617865125        0.192648739209207        0.000000000000000        0.000000000000000        0.079083060672041
       -0.886000000000000        0.231636156595383        0.034847019830390        0.196789136764993        0.000000000000000        0.000000000000000        0.080971058467301
       -0.884000000000000        0.236265293463683        0.035217767818545        0.201047525645138        0.000000000000000        0.000000000000000        0.082914878913296
       -0.882000000000000        0.241022932482443        0.035594997760727        0.205427934721716        0.000000000000000        0.000000000000000        0.084916468480495
       -0.880000000000000        0.245913399465805        0.035978848893910        0.209934550571894        0.000000000000000        0.000000000000000        0.086977850838992
       -0.878000000000000        0.250941188095898        0.036369463847026        0.214571724248872        0.000000000000000        0.000000000000000        0.089101130200923
       -0.876000000000000        0.256110967087309        0.036766988732668        0.219343978354641        0.000000000000000        0.000000000000000        0.091288494810986
       -0.874000000000000        0.261427587663467        0.037171573239540        0.224256014423927        0.000000000000000        0.000000000000000        0.093542220592194
       -0.872000000000000        0.266896091354830        0.037583370725685        0.229312720629145        0.000000000000000        0.000000000000000        0.095864674951730
       -0.870000000000000        0.272521718143885        0.038002538320524        0.234519179823361        0.000000000000000        0.000000000000000        0.098258320751418
       -0.868000000000000        0.278309914952682        0.038429237021837        0.239880677930845        0.000000000000000        0.000000000000000        0.100725720454504
       -0.866000000000000        0.284266344497648        0.038863631800506        0.245402712697142        0.000000000000000        0.000000000000000        0.103269540448318
       -0.864000000000000        0.290396894518081        0.039305891708506        0.251091002809576        0.000000000000000        0.000000000000000        0.105892555550535
       -0.862000000000000        0.296707687391824        0.039756189985521        0.256951497406303        0.000000000000000        0.000000000000000        0.108597653710391
       -0.860000000000000        0.303205090150031        0.040214704174312        0.262990385975719        0.000000000000000        0.000000000000000        0.111387840900703
       -0.858000000000000        0.309895724898005        0.040681616234146        0.269214108663860        0.000000000000000        0.000000000000000        0.114266246214857
       -0.856000000000000        0.316786479665486        0.041157112661276        0.275629367004209        0.000000000000000        0.000000000000000        0.117236127171466
       -0.854000000000000        0.323884519674523        0.041641384610766        0.282243135063757        0.000000000000000        0.000000000000000        0.120300875226496
       -0.852000000000000        0.331197299056411        0.042134628022041        0.289062671034370        0.000000000000000        0.000000000000000        0.123464021506165
       -0.850000000000000        0.338732573006980        0.042637043747905        0.296095529259075        0.000000000000000        0.000000000000000        0.126729242755585
       -0.848000000000000        0.346498410399413        0.043148837687882        0.303349572711531        0.000000000000000        0.000000000000000        0.130100367511825
       -0.846000000000000        0.354503206848631        0.043670220925791        0.310832985922841        0.000000000000000        0.000000000000000        0.133581382498525
       -0.844000000000000        0.362755698230694        0.044201409867568        0.318554288363126        0.000000000000000        0.000000000000000        0.137176439247779
       -0.842000000000000        0.371264974661079        0.044742626388650        0.326522348272429        0.000000000000000        0.000000000000000        0.140889860941889
       -0.840000000000000        0.380040494917804        0.045294097980085        0.334746396937718        0.000000000000000        0.000000000000000        0.144726149478816
       -0.838000000000000        0.389092101309743        0.045856057902747        0.343236043406996        0.000000000000000        0.000000000000000        0.148689992752124
       -0.836000000000000        0.398430034967715        0.046428745343102        0.352001289624613        0.000000000000000        0.000000000000000        0.152786272140755
       -0.834000000000000        0.408064951544468        0.047012405574468        0.361052545970000        0.000000000000000        0.000000000000000        0.157020070197766
       -0.832000000000000        0.418007937299279        0.047607290124652        0.370400647174627        0.000000000000000        0.000000000000000        0.161396678524987
       -0.830000000000000        0.428270525524226        0.048213656943271        0.380056868580955        0.000000000000000        0.000000000000000        0.165921605818842
       -0.828000000000000        0.438864713287305        0.048831770579394        0.390032942707910        0.000000000000000        0.000000000000000        0.170600586064258
       -0.826000000000000        0.449802978421910        0.049461902359774        0.400341076062137        0.000000000000000        0.000000000000000        0.175439586851182
       -0.824000000000000        0.461098296717352        0.050104330574849        0.410993966142503        0.000000000000000        0.000000000000000        0.180444817783827
       -0.822000000000000        0.472764159221256        0.050759340669140        0.422004818552116        0.000000000000000        0.000000000000000        0.185622738941488
       -0.820000000000000        0.484814589570760        0.051427225434888        0.433387364135871        0.000000000000000        0.000000000000000        0.190980069350492
       -0.818000000000000        0.497264161246777        0.052108285214540        0.445155876032238        0.000000000000000        0.000000000000000        0.196523795408849
       -0.816000000000000        0.510128014616648        0.052802828105531        0.457325186511116        0.000000000000000        0.000000000000000        0.202261179202792
       -0.814000000000000        0.523421873626620        0.053511170173959        0.469910703452661        0.000000000000000        0.000000000000000        0.208199766639351
       -0.812000000000000        0.537162061969662        0.054233635671328        0.482928426298334        0.000000000000000        0.000000000000000        0.214347395313503
       -0.810000000000000        0.551365518519574        0.054970557255612        0.496394961263962        0.000000000000000        0.000000000000000        0.220712202004175
       -0.808000000000000        0.566049811822974        0.055722276227096        0.510327535595878        0.000000000000000        0.000000000000000        0.227302629684391
       -0.806000000000000        0.581233153358899        0.056489142758141        0.524744010600758        0.000000000000000        0.000000000000000        0.234127433921309
       -0.804000000000000        0.596934409278948        0.057271516139157        0.539662893139791        0.000000000000000        0.000000000000000        0.241195688500317
       -0.802000000000000        0.613173110284673        0.058069765025886        0.555103345258786        0.000000000000000        0.000000000000000        0.248516790116450
       -0.800000000000000        0.629969459234268        0.058884267696156        0.571085191538112        0.000000000000000        0.000000000000000        0.256100461920978
       -0.798000000000000        0.647344336050710        0.059715412310399        0.587628923740311        0.000000000000000        0.000000000000000        0.263956755714956
       -0.796000000000000        0.665319299425935        0.060563597183021        0.604755702242914        0.000000000000000        0.000000000000000        0.272096052529947
       -0.794000000000000        0.683916584746007        0.061429231057669        0.622487353688338        0.000000000000000        0.000000000000000        0.280529061315334
       -0.792000000000000        0.703159097628718        0.062312733391760        0.640846364236958        0.000000000000000        0.000000000000000        0.289266815422599
       -0.790000000000000        0.723070402357662        0.063214534646614        0.659855867711048        0.000000000000000        0.000000000000000        0.298320666532217
       -0.788000000000000        0.743674704435503        0.064135076587454        0.679539627848049        0.000000000000000        0.000000000000000        0.307702275630298
       -0.786000000000000        0.764996826407203        0.065074812589066        0.699922013818136        0.000000000000000        0.000000000000000        0.317423600614535
       -0.784000000000000        0.787062175999377        0.066034207951047        0.721027968048330        0.000000000000000        0.000000000000000        0.327496880048642
       -0.782000000000000        0.809896705557730        0.067013740219399        0.742882965338331        0.000000000000000        0.000000000000000        0.337934612559466
       -0.780000000000000        0.833526861653145        0.068013899517721        0.765512962135425        0.000000000000000        0.000000000000000        0.348749531308852
       -0.778000000000000        0.857979523669943        0.069035188886245        0.788944334783697        0.000000000000000        0.000000000000000        0.359954572948726
