                  #Energy              Total trace      Spin Up (spin axis)      Spin Dn (spin axis)         <Sx> (spin axis)         <Sy> (spin axis)         <Sz> (spin axis)
       -1.000000000000000        0.011954650021746        0.003660214451584        0.008294435570162        0.000000000000000        0.000000000000000        0.002317110559289
       -0.998000000000000        0.012065025417232        0.003686641004195        0.008378384413037        0.000000000000000        0.000000000000000        0.002345871704421
       -0.996000000000000        0.012177088446223        0.003713386402300        0.008463702043923        0.000000000000000        0.000000000000000        0.002375157820811
       -0.994000000000000        0.012290875159437        0.003740456093148        0.008550419066289        0.000000000000000        0.000000000000000        0.002404981486571
       -0.992000000000000        0.012406422636482        0.003767855651479        0.008638566985003        0.000000000000000        0.000000000000000        0.002435355666762
       -0.990000000000000        0.012523769021806        0.003795590786815        0.008728178234991        0.000000000000000        0.000000000000000        0.002466293724088
       -0.988000000000000        0.012642953551084        0.003823667340642        0.008819286210442        0.000000000000000        0.000000000000000        0.002497809434900
       -0.986000000000000        0.012764016606800        0.003852091299853        0.008911925306947        0.000000000000000        0.000000000000000        0.002529917003547
       -0.984000000000000        0.012886999747920        0.003880868794032        0.009006130953888        0.000000000000000        0.000000000000000        0.002562631079928
       -0.982000000000000        0.013011945750923        0.003910006100828        0.009101939650095        0.000000000000000        0.000000000000000        0.002595966774633
       -0.980000000000000        0.013138898662894        0.003939509654331        0.009199389008564        0.000000000000000        0.000000000000000        0.002629939677117
       -0.978000000000000        0.013267903842601        0.003969386045974        0.009298517796627        0.000000000000000        0.000000000000000        0.002664565875326
       -0.976000000000000        0.013399008008121        0.003999642030526        0.009399365977595        0.000000000000000        0.000000000000000        0.002699861973534
       -0.974000000000000        0.013532259293096        0.004030284531475        0.009501974761622        0.000000000000000        0.000000000000000        0.002735845115073
       -0.972000000000000        0.013667707288502        0.004061320648315        0.009606386640187        0.000000000000000        0.000000000000000        0.002772532995936
       -0.970000000000000        0.013805403112242        0.004092757659819        0.009712645452423        0.000000000000000        0.000000000000000        0.002809943896302
       -0.968000000000000        0.013945399455724        0.004124603029285        0.009820796426439        0.000000000000000        0.000000000000000        0.002848096698577
       -0.966000000000000        0.014087750645023        0.004156864412907        0.009930886232115        0.000000000000000        0.000000000000000        0.002887010909604
       -0.964000000000000        0.014232512715361        0.004189549667753        0.010042963047608        0.000000000000000        0.000000000000000        0.002926706689927
       -0.962000000000000        0.014379743461539        0.004222666849794        0.010157076611745        0.000000000000000        0.000000000000000        0.002967204880976
       -0.960000000000000        0.014529502516386        0.004256224233522        0.010273278282864        0.000000000000000        0.000000000000000        0.003008527024671
       -0.958000000000000        0.014681851424416        0.004290230308853        0.010391621115563        0.000000000000000        0.000000000000000        0.003050695403355
       -0.956000000000000        0.014836853716735        0.004324693791889        0.010512159924845        0.000000000000000        0.000000000000000        0.003093733066478
       -0.954000000000000        0.014994574975654        0.004359623633161        0.010634951342493        0.000000000000000        0.000000000000000        0.003137663854666
       -0.952000000000000        0.015155082947272        0.004395029030617        0.010760053916655        0.000000000000000        0.000000000000000        0.003182512443019
       -0.950000000000000        0.015318447606125        0.004430919427956        0.010887528178170        0.000000000000000        0.000000000000000        0.003228304375107
       -0.948000000000000        0.015484741254442        0.004467304529745        0.011017436724697        0.000000000000000        0.000000000000000        0.003275066097476
       -0.946000000000000        0.015654038617796        0.004504194314329        0.011149844303467        0.000000000000000        0.000000000000000        0.003322824994569
       -0.944000000000000        0.015826416948219        0.004541599033544        0.011284817914675        0.000000000000000        0.000000000000000        0.003371609440566
       -0.942000000000000        0.016001956125967        0.004579529231706        0.011422426894261        0.000000000000000        0.000000000000000        0.003421448831278
       -0.940000000000000        0.016180738778865        0.004617995753052        0.011562743025813        0.000000000000000        0.000000000000000        0.003472373636380
       -0.938000000000000        0.016362850392474        0.004657009753799        0.011705840638675        0.000000000000000        0.000000000000000        0.003524415442438
       -0.936000000000000        0.016548379436270        0.004696582713982        0.011851796722288        0.000000000000000        0.000000000000000        0.003577607004153
       -0.934000000000000        0.016737417488317        0.004736726443318        0.012000691045000        0.000000000000000        0.000000000000000        0.003631982300841
       -0.932000000000000        0.016930059391650        0.004777453109067        0.012152606282583        0.000000000000000        0.000000000000000        0.003687576586758
       -0.930000000000000        0.017126403365683        0.004818775229114        0.012307628136569        0.000000000000000        0.000000000000000        0.003744426453728
       -0.928000000000000        0.017326551191138        0.004860705709736        0.012465845481402        0.000000000000000        0.000000000000000        0.003802569885833
       -0.926000000000000        0.017530608343736        0.004903257837362        0.012627350506374        0.000000000000000        0.000000000000000        0.003862046334506
       -0.924000000000000        0.017738684182444        0.004946445312250        0.012792238870194        0.000000000000000        0.000000000000000        0.003922896778972
       -0.922000000000000        0.017950892109791        0.004990282251713        0.012960609858078        0.000000000000000        0.000000000000000        0.003985163803182
       -0.920000000000000        0.018167349775478        0.005034783216270        0.013132566559207        0.000000000000000        0.000000000000000        0.004048891671469
       -0.918000000000000        0.018388179262463        0.005079963226676        0.013308216035787        0.000000000000000        0.000000000000000        0.004114126404556
       -0.916000000000000        0.018613507298678        0.005125837773501        0.013487669525176        0.000000000000000        0.000000000000000        0.004180915875837
       -0.914000000000000        0.018843465488551        0.005172422852726        0.013671042635825        0.000000000000000        0.000000000000000        0.004249309891550
       -0.912000000000000        0.019078190526923        0.005219734975929        0.013858455550994        0.000000000000000        0.000000000000000        0.004319360287532
       -0.910000000000000        0.019317824466023        0.005267791195183        0.014050033270840        0.000000000000000        0.000000000000000        0.004391121037828
       -0.908000000000000        0.019562514961426        0.005316609126484        0.014245905834942        0.000000000000000        0.000000000000000        0.004464648354229
       -0.906000000000000        0.019812415564892        0.005366206977449        0.014446208587443        0.000000000000000        0.000000000000000        0.004540000804997
       -0.904000000000000        0.020067685999835        0.005416603567819        0.014651082432016        0.000000000000000        0.000000000000000        0.004617239432099
       -0.902000000000000        0.020328492488313        0.005467818365198        0.014860674123115        0.000000000000000        0.000000000000000        0.004696427878959
       -0.900000000000000        0.020595008071261        0.005519871505501        0.015075136565760        0.000000000000000        0.000000000000000        0.004777632530130
       -0.898000000000000        0.020867412967504        0.005572783832189        0.015294629135315        0.000000000000000        0.000000000000000        0.004860922651563
       -0.896000000000000        0.021145894928493        0.005626576922093        0.015519318006400        0.000000000000000        0.000000000000000        0.004946370542153
       -0.894000000000000        0.021430649657985        0.005681273124630        0.015749376533355        0.000000000000000        0.000000000000000        0.005034051704362
       -0.892000000000000        0.021721881216388        0.005736895598665        0.015984985617723        0.000000000000000        0.000000000000000        0.005124045009529
       -0.890000000000000        0.022019802465373        0.005793468347492        0.016226334117882        0.000000000000000        0.000000000000000        0.005216432885195
       -0.888000000000000        0.022324635561748        0.005851016270796        0.016473619290952        0.000000000000000        0.000000000000000        0.005311301510078
       -0.886000000000000        0.022636612437155        0.005909565191787        0.016727047245368        0.000000000000000        0.000000000000000        0.005408741026791
       -0.884000000000000        0.022955975367726        0.005969141920140        0.016986833447587        0.000000000000000        0.000000000000000        0.005508845763723
       -0.882000000000000        0.023282977523248        0.006029774295296        0.017253203227952        0.000000000000000        0.000000000000000        0.005611714466328
       -0.880000000000000        0.023617883602639        0.006091491238137        0.017526392364502        0.000000000000000        0.000000000000000        0.005717450563182
       -0.878000000000000        0.023960970485798        0.006154322812943        0.017806647672855        0.000000000000000        0.000000000000000        0.005826162429956
       -0.876000000000000        0.024312527919720        0.006218300282166        0.018094227637554        0.000000000000000        0.000000000000000        0.005937963677694
       -0.874000000000000        0.024672859299798        0.006283456177798        0.018389403122000        0.000000000000000        0.000000000000000        0.006052973472101
       -0.872000000000000        0.025042282436104        0.006349824359371        0.018692458076733        0.000000000000000        0.000000000000000        0.006171316858681
       -0.870000000000000        0.025421130452718        0.006417440103832        0.019003690348886        0.000000000000000        0.000000000000000        0.006293125122527
       -0.868000000000000        0.025809752681809        0.006486340172444        0.019323412509364        0.000000000000000        0.000000000000000        0.006418536168460
       -0.866000000000000        0.026208515660887        0.006556562896969        0.019651952763918        0.000000000000000        0.000000000000000        0.006547694933474
       -0.864000000000000        0.026617804206440        0.006628148275616        0.019989655930824        0.000000000000000        0.000000000000000        0.006680753827604
       -0.862000000000000        0.027038022548125        0.006701138071177        0.020336884476947        0.000000000000000        0.000000000000000        0.006817873202885
       -0.860000000000000        0.027469595548860        0.006775575910527        0.020694019638333        0.000000000000000        0.000000000000000        0.006959221863903
       -0.858000000000000        0.027912970039006        0.006851507397494        0.021061462641512        0.000000000000000        0.000000000000000        0.007104977622009
       -0.856000000000000        0.028368616242884        0.006928980242452        0.021439636000432        0.000000000000000        0.000000000000000        0.007255327878990
       -0.854000000000000        0.028837029302058        0.007008044387576        0.021828984914482        0.000000000000000        0.000000000000000        0.007410470263453
       -0.852000000000000        0.029318730941547        0.007088752150755        0.022229978790792        0.000000000000000        0.000000000000000        0.007570613320019
       -0.850000000000000        0.029814271270128        0.007171158377219        0.022643112892909        0.000000000000000        0.000000000000000        0.007735977257845
       -0.848000000000000        0.030324230703759        0.007255320610422        0.023068910093337        0.000000000000000        0.000000000000000        0.007906794741457
       -0.846000000000000        0.030849222066564        0.007341299265763        0.023507922800802        0.000000000000000        0.000000000000000        0.008083311767520
       -0.844000000000000        0.031389892864299        0.007429157830259        0.023960735034040        0.000000000000000        0.000000000000000        0.008265788601890
       -0.842000000000000        0.031946927765744        0.007518963072138        0.024427964693606        0.000000000000000        0.000000000000000        0.008454500810734
       -0.840000000000000        0.032521051252439        0.007610785274849        0.024910265977591        0.000000000000000        0.000000000000000        0.008649740351371
       -0.838000000000000        0.033113030565376        0.007704698489354        0.025408332076022        0.000000000000000        0.000000000000000        0.008851816793334
       -0.836000000000000        0.033723678841534        0.007800780800428        0.025922898041106        0.000000000000000        0.000000000000000        0.009061058620339
       -0.834000000000000        0.034353858593612        0.007899114641728        0.026454743951884        0.000000000000000        0.000000000000000        0.009277814655078
       -0.832000000000000        0.035004485471214        0.007999787108003        0.027004698363211        0.000000000000000        0.000000000000000        0.009502455627604
       -0.830000000000000        0.035676532375356        0.008102890327434        0.027573642047922        0.000000000000000        0.000000000000000        0.009735375860244
       -0.828000000000000        0.036371033997128        0.008208521858136        0.028162512138991        0.000000000000000        0.000000000000000        0.009976995140427
       -0.826000000000000        0.037089091700453        0.008316785110296        0.028772306590158        0.000000000000000        0.000000000000000        0.010227760739931
       -0.824000000000000        0.037831878993533        0.008427789844518        0.029404089149015        0.000000000000000        0.000000000000000        0.010488149652249
       -0.822000000000000        0.038600647443423        0.008541652688091        0.030058994755333        0.000000000000000        0.000000000000000        0.010758671033621
       -0.820000000000000        0.039396733251706        0.008658497724729        0.030738235526977        0.000000000000000        0.000000000000000        0.011039868901124
       -0.818000000000000        0.040221564443448        0.008778457151522        0.031443107291926        0.000000000000000        0.000000000000000        0.011332325070202
       -0.816000000000000        0.041076668864985        0.008901671993611        0.032174996871374        0.000000000000000        0.000000000000000        0.011636662438881
       -0.814000000000000        0.041963682957951        0.009028292913303        0.032935390044647        0.000000000000000        0.000000000000000        0.011953548565672
       -0.812000000000000        0.042884361534599        0.009158481104206        0.033725880430393        0.000000000000000        0.000000000000000        0.012283699663094
       -0.810000000000000        0.043840588589443        0.009292409298440        0.034548179291003        0.000000000000000        0.000000000000000        0.012627884996282
       -0.808000000000000        0.044834389333589        0.009430262892713        0.035404126440877        0.000000000000000        0.000000000000000        0.012986931774082
       -0.806000000000000        0.045867943577741        0.009572241207425        0.036295702370316        0.000000000000000        0.000000000000000        0.013361730581446
       -0.804000000000000        0.046943600695375        0.009718558922797        0.037225041772578        0.000000000000000        0.000000000000000        0.013753241424891
       -0.802000000000000        0.048063896320163        0.009869447682683        0.038194448637480        0.000000000000000        0.000000000000000        0.014162500477398
       -0.800000000000000        0.049231571101718        0.010025157927904        0.039206413173815        0.000000000000000        0.000000000000000        0.014590627622955
       -0.798000000000000        0.050449591724429        0.010185960968853        0.040263630755577        0.000000000000000        0.000000000000000        0.015038834893362
       -0.796000000000000        0.051721174628185        0.010352151362525        0.041369023265660        0.000000000000000        0.000000000000000        0.015508435951568
       -0.794000000000000        0.053049812730003        0.010524049621558        0.042525763108445        0.000000000000000        0.000000000000000        0.016000856743444
       -0.792000000000000        0.054439305705481        0.010702005324148        0.043737300381333        0.000000000000000        0.000000000000000        0.016517647528592
       -0.790000000000000        0.055893794348607        0.010886400729548        0.045007393619059        0.000000000000000        0.000000000000000        0.017060496444755
       -0.788000000000000        0.057417799675495        0.011077654912982        0.046340144762513        0.000000000000000        0.000000000000000        0.017631244924765
       -0.786000000000000        0.059016267565357        0.011276228619481        0.047740038945876        0.000000000000000        0.000000000000000        0.018231905163197
       -0.784000000000000        0.060694619927240        0.011482629907838        0.049211990019403        0.000000000000000        0.000000000000000        0.018864680055783
       -0.782000000000000        0.062458813472751        0.011697420780613        0.050761392692138        0.000000000000000        0.000000000000000        0.019531985955763
       -0.780000000000000        0.064315407578613        0.011921225001977        0.052394182576636        0.000000000000000        0.000000000000000        0.020236478787330
       -0.778000000000000        0.066271642845509        0.012154737379010        0.054116905466499        0.000000000000000        0.000000000000000        0.020981084043745
